time (s)	det(V)
6457.089434	-1.249763	
6457.091438	-1.226101	
6457.093437	-1.212248	
6457.097435	-1.196040	
6457.099436	-1.156486	
6457.101437	-1.135173	
6457.103437	-1.111918	
6457.105437	-1.087668	
6457.107439	-1.064022	
6457.109437	-1.036927	
6457.113447	-1.009075	
6457.115447	-0.947334	
6457.117446	-0.918534	
6457.119447	-0.883502	
6457.121446	-0.849697	
6457.123447	-0.816561	
6457.125445	-0.776191	
6457.127447	-0.743302	
6457.129446	-0.710078	
6457.133445	-0.671465	
6457.135446	-0.595792	
6457.137447	-0.552901	
6457.139447	-0.513527	
6457.141446	-0.472400	
6457.143447	-0.435826	
6457.145449	-0.396689	
6457.149446	-0.356817	
6457.151447	-0.278882	
6457.153445	-0.236637	
6457.155446	-0.193418	
6457.157447	-0.151010	
6457.159447	-0.103735	
6457.161447	-0.063067	
6457.163446	-0.019931	
6457.165447	0.026452	
6457.169445	0.062747	
6457.173445	0.151043	
6457.175447	0.238060	
6457.177447	0.280343	
6457.179449	0.322983	
6457.181446	0.364529	
6457.183447	0.399141	
6457.185446	0.439606	
6457.187445	0.478477	
6457.191447	0.517705	
6457.195445	0.600598	
6457.197447	0.678931	
6457.199447	0.714584	
6457.201448	0.750196	
6457.203449	0.785366	
6457.207451	0.821829	
6457.209453	0.887466	
6457.211452	0.917786	
6457.215451	0.948366	
6457.217453	1.002908	
6457.219454	1.031675	
6457.221453	1.054096	
6457.223453	1.076598	
6457.225454	1.100420	
6457.227456	1.115278	
6457.231453	1.133244	
6457.233453	1.160088	
6457.235453	1.175119	
6457.237452	1.187357	
6457.239453	1.193836	
6457.241453	1.203075	
6457.243453	1.207603	
6457.245453	1.208811	
6457.247452	1.208165	
6457.249463	1.208000	
6457.253458	1.205273	
6457.255460	1.202734	
6457.257457	1.199898	
6457.259459	1.196725	
6457.261458	1.187178	
6457.263459	1.178404	
6457.265459	1.170034	
6457.269459	1.150294	
6457.273456	1.128371	
6457.275457	1.105308	
6457.277459	1.088277	
6457.279459	1.071639	
6457.281459	1.055817	
6457.283458	1.036249	
6457.285459	1.020328	
6457.287457	1.000678	
6457.291465	0.981251	
6457.295466	0.944955	
6457.297467	0.909163	
6457.299467	0.888214	
6457.301470	0.867147	
6457.303477	0.849657	
6457.307474	0.830102	
6457.309477	0.789852	
6457.311476	0.768977	
6457.315476	0.750143	
6457.317477	0.710572	
6457.319476	0.693262	
6457.321477	0.673668	
6457.323478	0.653920	
6457.325476	0.639218	
6457.329479	0.615843	
6457.333478	0.580341	
6457.335478	0.546139	
6457.337479	0.529982	
6457.339479	0.510119	
6457.341478	0.497084	
6457.345476	0.478743	
6457.347477	0.445001	
6457.349479	0.428387	
6457.353478	0.414045	
6457.355479	0.390022	
6457.357479	0.377294	
6457.359479	0.365680	
6457.361479	0.352784	
6457.363479	0.337979	
6457.367478	0.324422	
6457.371478	0.298703	
6457.373479	0.278369	
6457.375479	0.270665	
6457.377478	0.256967	
6457.379480	0.247220	
6457.383477	0.238689	
6457.385478	0.214241	
6457.387479	0.206933	
6457.391478	0.198303	
6457.393478	0.187029	
6457.395479	0.178364	
6457.397478	0.171112	
6457.399479	0.163858	
6457.401477	0.155492	
6457.403482	0.147715	
6457.407478	0.141479	
6457.409478	0.132768	
6457.411479	0.129125	
6457.413479	0.124305	
6457.415479	0.119813	
6457.417478	0.110747	
6457.419479	0.109408	
6457.423477	0.104148	
6457.425480	0.097353	
6457.427478	0.091667	
6457.431478	0.087164	
6457.433479	0.082191	
6457.435478	0.079230	
6457.437479	0.077469	
6457.439478	0.073179	
6457.441479	0.072084	
6457.443478	0.066839	
6457.445483	0.063857	
6457.449481	0.061743	
6457.451481	0.057647	
6457.453480	0.056152	
6457.455480	0.054867	
6457.457481	0.051886	
6457.459481	0.052515	
6457.461481	0.049332	
6457.463480	0.043595	
6457.467481	0.043640	
6457.469481	0.037940	
6457.471480	0.037514	
6457.473479	0.037305	
6457.475484	0.039460	
6457.477481	0.035426	
6457.479481	0.033517	
6457.481482	0.034233	
6457.483482	0.027408	
6457.487480	0.025447	
6457.491480	0.022221	
6457.493482	0.024321	
6457.495480	0.022994	
6457.497481	0.021564	
6457.499481	0.019807	
6457.503478	0.018606	
6457.505480	0.012817	
6457.507481	0.012920	
6457.511480	0.012241	
6457.513481	0.015114	
6457.515479	0.012251	
6457.517481	0.007288	
6457.519481	0.009789	
6457.521481	0.008484	
6457.525480	0.003425	
6457.529481	0.004415	
6457.531481	0.007141	
6457.533480	0.002757	
6457.535479	0.003335	
6457.537480	0.004347	
6457.541480	0.002552	
6457.543480	0.000765	
6457.545480	-0.001173	
6457.549480	-0.000463	
6457.551482	0.001673	
6457.555479	-0.000495	
6457.557481	0.000309	
6457.559480	0.000952	
6457.563480	-0.002654	
6457.565481	-0.001857	
6457.567480	-0.006990	
6457.569481	-0.001531	
6457.571481	-0.001701	
6457.573481	-0.003341	
6457.575480	0.000575	
6457.577479	-0.000550	
6457.579481	-0.002064	
6457.583479	-0.004128	
6457.585481	-0.005496	
6457.587481	-0.004648	
6457.589484	-0.002084	
6457.591482	0.000535	
6457.593480	-0.001743	
6457.595481	-0.002356	
6457.597486	-0.001516	
6457.599483	-0.003949	
6457.603486	-0.006303	
6457.607486	-0.005710	
6457.609487	0.000385	
6457.611487	-0.001723	
6457.613488	-0.002645	
6457.615487	-0.001117	
6457.619485	-0.005036	
6457.621485	-0.006758	
6457.623487	-0.007077	
6457.627485	-0.003900	
6457.629486	-0.002478	
6457.631487	-0.001680	
6457.633487	-0.006520	
6457.635485	-0.004254	
6457.639485	-0.004059	
6457.643485	-0.006247	
6457.645487	-0.005912	
6457.647485	-0.003917	
6457.649487	-0.005723	
6457.651487	-0.006203	
6457.653487	-0.006230	
6457.655487	-0.004877	
6457.657488	-0.010073	
6457.661487	-0.006884	
6457.665487	-0.009285	
6457.667486	-0.009682	
6457.669487	-0.006560	
6457.671486	-0.007956	
6457.673487	-0.007605	
6457.677485	-0.004420	
6457.679487	-0.009717	
6457.681486	-0.009087	
6457.685487	-0.013247	
6457.687486	-0.006299	
6457.689486	-0.008356	
6457.691487	-0.006887	
6457.693489	-0.006402	
6457.695494	-0.007179	
6457.699500	-0.010435	
6457.703500	-0.011646	
6457.705503	-0.007416	
6457.707499	-0.007028	
6457.709500	-0.006156	
6457.711500	-0.005793	
6457.715499	-0.007103	
6457.717500	-0.013691	
6457.719502	-0.010499	
6457.723501	-0.011330	
6457.725500	-0.003206	
6457.727500	-0.006253	
6457.729501	-0.006308	
6457.731501	-0.004587	
6457.733500	-0.009443	
6457.737499	-0.011025	
6457.741500	-0.009870	
6457.743501	-0.005511	
6457.745500	-0.006089	
6457.747501	-0.006591	
6457.749501	-0.006473	
6457.753498	-0.009214	
6457.755501	-0.010843	
6457.757500	-0.011580	
6457.761500	-0.008094	
6457.763501	-0.006705	
6457.765501	-0.006992	
6457.767500	-0.012613	
6457.769500	-0.008007	
6457.771501	-0.010142	
6457.775501	-0.013510	
6457.779499	-0.012594	
6457.781501	-0.008438	
6457.783501	-0.013512	
6457.785500	-0.012306	
6457.787501	-0.011399	
6457.791501	-0.012337	
6457.793501	-0.015075	
6457.795504	-0.017049	
6457.799499	-0.014850	
6457.801500	-0.016477	
6457.803501	-0.015943	
6457.805499	-0.016009	
6457.807501	-0.015972	
6457.809502	-0.015805	
6457.811501	-0.020152	
6457.815501	-0.020939	
6457.817500	-0.021864	
6457.819500	-0.021112	
6457.821501	-0.019855	
6457.823500	-0.021949	
6457.825502	-0.019481	
6457.827500	-0.020546	
6457.829501	-0.023512	
6457.831501	-0.025299	
6457.833499	-0.029635	
6457.837500	-0.027314	
6457.839501	-0.027030	
6457.841502	-0.024924	
6457.843501	-0.026583	
6457.845500	-0.028078	
6457.847501	-0.028213	
6457.849501	-0.031012	
6457.853498	-0.033719	
6457.857498	-0.035754	
6457.859500	-0.032518	
6457.861501	-0.033412	
6457.863500	-0.034505	
6457.865500	-0.036559	
6457.867501	-0.040820	
6457.869501	-0.039311	
6457.871501	-0.042360	
6457.875507	-0.045575	
6457.877508	-0.044314	
6457.879505	-0.047366	
6457.881507	-0.044770	
6457.883507	-0.050431	
6457.885507	-0.050613	
6457.887506	-0.052529	
6457.889508	-0.054244	
6457.891508	-0.054904	
6457.895508	-0.059699	
6457.899510	-0.063546	
6457.901510	-0.066968	
6457.903514	-0.068973	
6457.905511	-0.072975	
6457.907513	-0.074201	
6457.911510	-0.074934	
6457.913513	-0.084977	
6457.915513	-0.090126	
6457.919512	-0.098378	
6457.921513	-0.098659	
6457.923513	-0.103903	
6457.925512	-0.104314	
6457.927513	-0.110424	
6457.929511	-0.116047	
6457.931515	-0.121257	
6457.935512	-0.130742	
6457.937512	-0.137694	
6457.939513	-0.141348	
6457.941513	-0.144529	
6457.943512	-0.152137	
6457.945513	-0.158921	
6457.947511	-0.163586	
6457.949512	-0.172464	
6457.951515	-0.181735	
6457.955518	-0.187112	
6457.957519	-0.201303	
6457.959519	-0.203814	
6457.961518	-0.213029	
6457.963519	-0.221370	
6457.965518	-0.229841	
6457.967518	-0.240893	
6457.969520	-0.247521	
6457.971518	-0.260322	
6457.975517	-0.268382	
6457.977519	-0.284323	
6457.979519	-0.291805	
6457.981518	-0.301346	
6457.983517	-0.316423	
6457.985520	-0.325157	
6457.987519	-0.335590	
6457.991516	-0.348980	
6457.995517	-0.372972	
6457.997519	-0.393701	
6457.999520	-0.409095	
6458.001518	-0.421228	
6458.003517	-0.432944	
6458.005518	-0.444959	
6458.007519	-0.458131	
6458.011516	-0.475427	
6458.013518	-0.508962	
6458.017519	-0.524001	
6458.019517	-0.556955	
6458.021517	-0.574194	
6458.023519	-0.593940	
6458.025518	-0.607939	
6458.029517	-0.629428	
6458.031518	-0.670877	
6458.033520	-0.695014	
6458.037518	-0.714196	
6458.039518	-0.755143	
6458.041519	-0.774696	
6458.043520	-0.798376	
6458.045517	-0.821074	
6458.047519	-0.843745	
6458.051526	-0.872399	
6458.053525	-0.917022	
6458.055526	-0.940560	
6458.057529	-0.960050	
6458.059532	-0.981584	
6458.061532	-1.006280	
6458.063533	-1.028549	
6458.065532	-1.050439	
6458.069531	-1.077711	
6458.073531	-1.118613	
6458.075532	-1.151418	
6458.077532	-1.172268	
6458.079533	-1.189218	
6458.081532	-1.205628	
6458.083532	-1.224293	
6458.085533	-1.235787	
6458.089530	-1.248616	
6458.093530	-1.267624	
6458.095537	-1.280186	
6458.097536	-1.282690	
6458.099536	-1.287758	
6458.101534	-1.289556	
6458.103535	-1.288820	
6458.107533	-1.286855	
6458.109533	-1.281493	
6458.111535	-1.276641	
6458.115534	-1.268151	
6458.117535	-1.246996	
6458.119534	-1.232345	
6458.121534	-1.217731	
6458.123535	-1.199369	
6458.127533	-1.177825	
6458.129536	-1.140566	
6458.131535	-1.117447	
6458.135534	-1.097264	
6458.137534	-1.038867	
6458.139535	-1.014536	
6458.141535	-0.982560	
6458.143533	-0.952812	
6458.145534	-0.922366	
6458.147536	-0.893626	
6458.153534	-0.828351	
6458.155535	-0.754939	
6458.157535	-0.718483	
6458.159534	-0.681493	
6458.161535	-0.644316	
6458.165534	-0.607502	
6458.167535	-0.535313	
6458.169535	-0.491262	
6458.173535	-0.453939	
6458.175535	-0.368651	
6458.177533	-0.329753	
6458.179535	-0.287450	
6458.181534	-0.241554	
6458.183534	-0.204184	
6458.187539	-0.161518	
6458.191541	-0.072531	
6458.193540	0.026012	
6458.195545	0.069925	
6458.197540	0.114321	
6458.199541	0.157625	
6458.203540	0.202522	
6458.205542	0.290878	
6458.207541	0.333259	
6458.211541	0.378406	
6458.213542	0.466101	
6458.215540	0.509612	
6458.217541	0.548625	
6458.219539	0.593285	
6458.221539	0.633830	
6458.225539	0.671993	
6458.229540	0.755226	
6458.231540	0.834044	
6458.235539	0.904945	
6458.237541	0.939489	
6458.241538	0.970810	
6458.243541	1.029022	
6458.245540	1.056717	
6458.249539	1.082443	
6458.251541	1.132769	
6458.253540	1.152581	
6458.255543	1.171755	
6458.257541	1.190440	
6458.259540	1.206185	
6458.263545	1.214875	
6458.267544	1.234671	
6458.269545	1.249167	
6458.271545	1.254805	
6458.273545	1.255304	
6458.275545	1.262283	
6458.279542	1.260749	
6458.281546	1.256859	
6458.283544	1.248752	
6458.287545	1.244665	
6458.289545	1.231532	
6458.291545	1.226137	
6458.293545	1.215841	
6458.295552	1.205426	
6458.297549	1.195332	
6458.299550	1.176116	
6458.303551	1.162704	
6458.305551	1.132770	
6458.307550	1.119571	
6458.309551	1.103847	
6458.311551	1.085130	
6458.313551	1.066790	
6458.315554	1.047002	
6458.319549	1.025360	
6458.321550	0.986326	
6458.323550	0.965182	
6458.325550	0.948488	
6458.327550	0.927643	
6458.329551	0.907339	
6458.331552	0.887783	
6458.333552	0.861484	
6458.335552	0.844069	
6458.339550	0.821810	
6458.341551	0.779947	
6458.345550	0.756305	
6458.347550	0.718730	
6458.349550	0.695614	
6458.351551	0.674086	
6458.353550	0.656245	
6458.357548	0.635039	
6458.359551	0.596718	
6458.361550	0.574956	
6458.365550	0.555664	
6458.367551	0.519412	
6458.369550	0.502389	
6458.371551	0.484583	
6458.373550	0.466161	
6458.375551	0.454059	
6458.379551	0.432690	
6458.381551	0.403848	
6458.383551	0.386601	
6458.385551	0.377898	
6458.387551	0.364516	
6458.389552	0.349789	
6458.391555	0.338459	
6458.393551	0.324710	
6458.395557	0.310650	
6458.397556	0.296840	
6458.401556	0.282823	
6458.403557	0.261826	
6458.405557	0.252473	
6458.407556	0.243068	
6458.409556	0.233757	
6458.411557	0.223262	
6458.413555	0.214712	
6458.417555	0.204922	
6458.419557	0.186465	
6458.421556	0.177598	
6458.425557	0.168531	
6458.427556	0.159743	
6458.429557	0.153818	
6458.431555	0.148112	
6458.433556	0.139382	
6458.435555	0.133406	
6458.437556	0.126394	
6458.439558	0.119838	
6458.443566	0.118815	
6458.445566	0.108994	
6458.447567	0.107279	
6458.449566	0.100166	
6458.451567	0.095778	
6458.453566	0.093450	
6458.455567	0.089044	
6458.457566	0.083199	
6458.461567	0.077324	
6458.465566	0.072622	
6458.467567	0.068130	
6458.469566	0.066735	
6458.471567	0.063527	
6458.473566	0.060679	
6458.477565	0.062486	
6458.479567	0.052958	
6458.481567	0.051977	
6458.485566	0.044140	
6458.487567	0.047130	
6458.489571	0.042976	
6458.491569	0.043537	
6458.493566	0.041435	
6458.495567	0.038221	
6458.497570	0.035526	
6458.503574	0.029354	
6458.505575	0.030038	
6458.507576	0.029839	
6458.511572	0.027887	
6458.515572	0.024747	
6458.517575	0.015570	
6458.519574	0.017242	
6458.523574	0.016680	
6458.525573	0.019800	
6458.527577	0.015995	
6458.529576	0.014541	
6458.531575	0.014940	
6458.533576	0.009359	
6458.537572	0.008010	
6458.541575	0.006208	
6458.543574	0.008939	
6458.545576	0.007749	
6458.547575	0.007566	
6458.549575	0.004957	
6458.553572	0.003773	
6458.555573	-0.000226	
6458.557574	0.000313	
6458.561574	0.001692	
6458.563575	0.002309	
6458.567573	-0.001464	
6458.569575	-0.000406	
6458.571574	-0.001073	
6458.575575	-0.005790	
6458.577576	-0.002021	
6458.579575	-0.003595	
6458.581577	0.000968	
6458.583575	-0.003298	
6458.585574	-0.002091	
6458.587574	-0.002892	
6458.589574	-0.003031	
6458.591579	-0.001483	
6458.593579	-0.004884	
6458.597577	-0.006279	
6458.599579	-0.006179	
6458.601579	-0.002752	
6458.603578	-0.003716	
6458.605579	-0.002983	
6458.607579	-0.002191	
6458.609580	-0.000573	
6458.611578	-0.004595	
6458.613579	-0.005986	
6458.615586	-0.006668	
6458.619587	-0.008378	
6458.621587	-0.004355	
6458.623587	-0.004775	
6458.625588	-0.000640	
6458.627587	-0.003660	
6458.629587	-0.002692	
6458.631586	-0.001921	
6458.635584	-0.009711	
6458.637587	-0.006938	
6458.639585	-0.009251	
6458.641588	-0.005551	
6458.643597	-0.004337	
6458.645595	-0.003932	
6458.647594	-0.003224	
6458.649594	-0.006498	
6458.651595	-0.005288	
6458.655592	-0.006466	
6458.659592	-0.006466	
6458.661594	-0.004819	
6458.663595	-0.004898	
6458.665594	-0.005288	
6458.667594	-0.007754	
6458.669596	-0.006495	
6458.671595	-0.006029	
6458.673595	-0.010185	
6458.677595	-0.007393	
6458.681596	-0.007825	
6458.683597	-0.009641	
6458.685600	-0.007284	
6458.687597	-0.007613	
6458.689598	-0.008148	
6458.693600	-0.005192	
6458.695601	-0.009305	
6458.697599	-0.008527	
6458.701600	-0.011697	
6458.703600	-0.006719	
6458.705600	-0.007641	
6458.707601	-0.006772	
6458.709602	-0.005781	
6458.711600	-0.007962	
6458.715603	-0.009638	
6458.719603	-0.011016	
6458.721605	-0.006097	
6458.723605	-0.008513	
6458.725604	-0.004703	
6458.727605	-0.005756	
6458.731603	-0.005109	
6458.733605	-0.012652	
6458.735606	-0.009662	
6458.739603	-0.009003	
6458.741603	-0.003749	
6458.743604	-0.005517	
6458.745605	-0.005327	
6458.747604	-0.003775	
6458.749603	-0.007894	
6458.753604	-0.009380	
6458.757604	-0.009947	
6458.759605	-0.004152	
6458.761605	-0.004393	
6458.763603	-0.005321	
6458.765606	-0.004911	
6458.767605	-0.007377	
6458.769604	-0.009313	
6458.773603	-0.009095	
6458.777603	-0.005176	
6458.779605	-0.004436	
6458.781605	-0.003940	
6458.783604	-0.008651	
6458.785604	-0.006122	
6458.789602	-0.005942	
6458.791604	-0.007473	
6458.793604	-0.008119	
6458.797605	-0.009417	
6458.799603	-0.006911	
6458.801605	-0.007870	
6458.803606	-0.007784	
6458.805605	-0.007572	
6458.807605	-0.006943	
6458.809605	-0.009155	
6458.813604	-0.009665	
6458.815604	-0.011652	
6458.817603	-0.009604	
6458.819604	-0.008371	
6458.821605	-0.008557	
6458.823604	-0.010437	
6458.825605	-0.006048	
6458.827604	-0.009949	
6458.829604	-0.012878	
6458.831604	-0.012365	
6458.835613	-0.015639	
6458.837615	-0.010706	
6458.839614	-0.012493	
6458.841614	-0.008532	
6458.843615	-0.011513	
6458.845614	-0.010627	
6458.847613	-0.011058	
6458.851614	-0.015435	
6458.855613	-0.014784	
6458.857615	-0.013551	
6458.859615	-0.012926	
6458.861616	-0.012962	
6458.863615	-0.015993	
6458.865614	-0.013734	
6458.867615	-0.015717	
6458.869614	-0.018503	
6458.873613	-0.018869	
6458.877614	-0.014966	
6458.879615	-0.014889	
6458.881614	-0.015067	
6458.883614	-0.020363	
6458.885616	-0.017246	
6458.889612	-0.018087	
6458.891615	-0.020812	
6458.893614	-0.021597	
6458.897614	-0.023376	
6458.899615	-0.022405	
6458.901613	-0.022907	
6458.903615	-0.022929	
6458.905615	-0.023674	
6458.907614	-0.024050	
6458.911614	-0.026329	
6458.915613	-0.027255	
6458.917614	-0.031045	
6458.919616	-0.030434	
6458.921613	-0.031984	
6458.923614	-0.033319	
6458.927612	-0.031932	
6458.929615	-0.038065	
6458.931615	-0.039978	
6458.935616	-0.044668	
6458.937616	-0.043145	
6458.939615	-0.046750	
6458.941615	-0.046126	
6458.943615	-0.048146	
6458.945615	-0.051181	
6458.949618	-0.055540	
6458.953617	-0.061291	
6458.955619	-0.063859	
6458.957617	-0.064413	
6458.959618	-0.067887	
6458.961619	-0.069821	
6458.965617	-0.073012	
6458.967617	-0.084999	
6458.969619	-0.086590	
6458.973618	-0.088807	
6458.975619	-0.090474	
6458.977618	-0.090586	
6458.979619	-0.100224	
6458.981620	-0.102136	
6458.983620	-0.111169	
6458.985622	-0.115981	
6458.989623	-0.121130	
6458.991622	-0.126207	
6458.993622	-0.130494	
6458.995623	-0.134655	
6458.997622	-0.139235	
6458.999623	-0.148099	
6459.001622	-0.151234	
6459.003622	-0.157919	
6459.005622	-0.167568	
6459.009623	-0.169866	
6459.011622	-0.182240	
6459.013622	-0.186211	
6459.015622	-0.193822	
6459.017623	-0.202680	
6459.019623	-0.209504	
6459.021622	-0.216216	
6459.023623	-0.225108	
6459.025623	-0.231834	
6459.027622	-0.242771	
6459.031623	-0.250881	
6459.033623	-0.270424	
6459.035622	-0.277218	
6459.037623	-0.287577	
6459.039623	-0.299892	
6459.041623	-0.306628	
6459.043623	-0.320194	
6459.047621	-0.335056	
6459.051620	-0.362046	
6459.053622	-0.385405	
6459.055622	-0.399871	
6459.057622	-0.412080	
6459.059623	-0.426501	
6459.061623	-0.439191	
6459.063621	-0.454379	
6459.065622	-0.475645	
6459.069623	-0.493938	
6459.073622	-0.527993	
6459.075622	-0.560962	
6459.077623	-0.582435	
6459.079625	-0.603321	
6459.081627	-0.622155	
6459.085622	-0.647249	
6459.087625	-0.690457	
6459.089625	-0.713520	
6459.093624	-0.731497	
6459.095624	-0.775991	
6459.097624	-0.798175	
6459.099625	-0.824559	
6459.101624	-0.845889	
6459.103625	-0.869004	
6459.107633	-0.895349	
6459.111631	-0.936617	
6459.113633	-0.978145	
6459.115633	-1.002106	
6459.117632	-1.024038	
6459.119632	-1.042017	
6459.123630	-1.060898	
6459.125633	-1.097499	
6459.127631	-1.116047	
6459.131633	-1.131604	
6459.133632	-1.162461	
6459.135633	-1.173253	
6459.137631	-1.186060	
6459.139633	-1.198497	
6459.143630	-1.205489	
6459.145634	-1.223970	
6459.147632	-1.228680	
6459.151632	-1.237126	
6459.153633	-1.239508	
6459.155633	-1.241547	
6459.157632	-1.239569	
6459.159633	-1.237199	
6459.161632	-1.236429	
6459.163631	-1.233723	
6459.167633	-1.228878	
6459.169632	-1.213602	
6459.171632	-1.200060	
6459.173632	-1.190387	
6459.175633	-1.175548	
6459.177632	-1.162788	
6459.179633	-1.146349	
6459.181635	-1.130104	
6459.185633	-1.119295	
6459.189633	-1.076113	
6459.191636	-1.026397	
6459.193635	-1.004501	
6459.195634	-0.980332	
6459.197635	-0.951288	
6459.201632	-0.925789	
6459.203634	-0.867281	
6459.205634	-0.835408	
6459.209633	-0.802040	
6459.211634	-0.728626	
6459.213634	-0.693245	
6459.215634	-0.658346	
6459.217633	-0.620058	
6459.221633	-0.581440	
6459.225633	-0.502096	
6459.227633	-0.418919	
6459.229635	-0.376720	
6459.231635	-0.332574	
6459.233635	-0.291957	
